Aug. 26, 2022   16:32:07
Cyclic Voltammetry
File: c:\users\labchem\desktop\lukeg_glucoseexamples\fc\fc-10mm_gluc.txt
Data Source:  Experiment
Instrument Model:  CHI760E
Header: 
Note: 

Init E (V) = 0
High E (V) = 0.6
Low E (V) = 0
Init P/N = P
Scan Rate (V/s) = 0.5
Segment = 2
Sample Interval (V) = 0.001
Quiet Time (sec) = 2
Sensitivity (A/V) = 1e-5

Segment 1:
Segment 2:
Potential/V, Current/A

0.000, 2.092e-7
0.001, 1.240e-6
0.002, 1.808e-6
0.003, 2.153e-6
0.004, 2.438e-6
0.005, 2.586e-6
0.006, 2.777e-6
0.007, 2.879e-6
0.008, 2.991e-6
0.009, 3.090e-6
0.010, 3.135e-6
0.011, 3.254e-6
0.012, 3.279e-6
0.013, 3.345e-6
0.014, 3.391e-6
0.015, 3.419e-6
0.016, 3.482e-6
0.017, 3.485e-6
0.018, 3.552e-6
0.019, 3.571e-6
0.020, 3.590e-6
0.021, 3.638e-6
0.022, 3.620e-6
0.023, 3.683e-6
0.024, 3.691e-6
0.025, 3.714e-6
0.026, 3.732e-6
0.027, 3.729e-6
0.028, 3.776e-6
0.029, 3.768e-6
0.030, 3.793e-6
0.031, 3.805e-6
0.032, 3.800e-6
0.033, 3.839e-6
0.034, 3.818e-6
0.035, 3.851e-6
0.036, 3.862e-6
0.037, 3.862e-6
0.038, 3.909e-6
0.039, 3.825e-6
0.040, 3.871e-6
0.041, 3.895e-6
0.042, 3.909e-6
0.043, 3.944e-6
0.044, 3.923e-6
0.045, 3.969e-6
0.046, 3.933e-6
0.047, 3.985e-6
0.048, 3.981e-6
0.049, 3.987e-6
0.050, 4.017e-6
0.051, 3.988e-6
0.052, 4.031e-6
0.053, 4.029e-6
0.054, 4.027e-6
0.055, 4.055e-6
0.056, 4.023e-6
0.057, 4.066e-6
0.058, 4.056e-6
0.059, 4.067e-6
0.060, 4.079e-6
0.061, 4.060e-6
0.062, 4.101e-6
0.063, 4.071e-6
0.064, 4.113e-6
0.065, 4.104e-6
0.066, 4.092e-6
0.067, 4.129e-6
0.068, 4.095e-6
0.069, 4.131e-6
0.070, 4.132e-6
0.071, 4.127e-6
0.072, 4.150e-6
0.073, 4.120e-6
0.074, 4.168e-6
0.075, 4.136e-6
0.076, 4.160e-6
0.077, 4.178e-6
0.078, 4.127e-6
0.079, 4.147e-6
0.080, 4.137e-6
0.081, 4.182e-6
0.082, 4.187e-6
0.083, 4.188e-6
0.084, 4.222e-6
0.085, 4.194e-6
0.086, 4.240e-6
0.087, 4.239e-6
0.088, 4.234e-6
0.089, 4.268e-6
0.090, 4.244e-6
0.091, 4.281e-6
0.092, 4.269e-6
0.093, 4.296e-6
0.094, 4.317e-6
0.095, 4.289e-6
0.096, 4.334e-6
0.097, 4.295e-6
0.098, 4.348e-6
0.099, 4.353e-6
0.100, 4.342e-6
0.101, 4.375e-6
0.102, 4.354e-6
0.103, 4.391e-6
0.104, 4.389e-6
0.105, 4.400e-6
0.106, 4.434e-6
0.107, 4.403e-6
0.108, 4.455e-6
0.109, 4.427e-6
0.110, 4.463e-6
0.111, 4.487e-6
0.112, 4.467e-6
0.113, 4.511e-6
0.114, 4.484e-6
0.115, 4.534e-6
0.116, 4.547e-6
0.117, 4.524e-6
0.118, 4.535e-6
0.119, 4.534e-6
0.120, 4.596e-6
0.121, 4.600e-6
0.122, 4.626e-6
0.123, 4.676e-6
0.124, 4.649e-6
0.125, 4.717e-6
0.126, 4.696e-6
0.127, 4.758e-6
0.128, 4.788e-6
0.129, 4.778e-6
0.130, 4.840e-6
0.131, 4.815e-6
0.132, 4.878e-6
0.133, 4.888e-6
0.134, 4.908e-6
0.135, 4.959e-6
0.136, 4.946e-6
0.137, 5.009e-6
0.138, 5.009e-6
0.139, 5.042e-6
0.140, 5.101e-6
0.141, 5.088e-6
0.142, 5.144e-6
0.143, 5.155e-6
0.144, 5.201e-6
0.145, 5.251e-6
0.146, 5.248e-6
0.147, 5.322e-6
0.148, 5.308e-6
0.149, 5.389e-6
0.150, 5.389e-6
0.151, 5.440e-6
0.152, 5.514e-6
0.153, 5.503e-6
0.154, 5.590e-6
0.155, 5.605e-6
0.156, 5.657e-6
0.157, 5.666e-6
0.158, 5.690e-6
0.159, 5.793e-6
0.160, 5.814e-6
0.161, 5.891e-6
0.162, 5.963e-6
0.163, 5.982e-6
0.164, 6.075e-6
0.165, 6.086e-6
0.166, 6.174e-6
0.167, 6.227e-6
0.168, 6.294e-6
0.169, 6.388e-6
0.170, 6.407e-6
0.171, 6.502e-6
0.172, 6.539e-6
0.173, 6.624e-6
0.174, 6.700e-6
0.175, 6.742e-6
0.176, 6.838e-6
0.177, 6.873e-6
0.178, 6.979e-6
0.179, 7.043e-6
0.180, 7.133e-6
0.181, 7.247e-6
0.182, 7.271e-6
0.183, 7.388e-6
0.184, 7.450e-6
0.185, 7.536e-6
0.186, 7.653e-6
0.187, 7.697e-6
0.188, 7.818e-6
0.189, 7.892e-6
0.190, 8.008e-6
0.191, 8.122e-6
0.192, 8.158e-6
0.193, 8.308e-6
0.194, 8.359e-6
0.195, 8.495e-6
0.196, 8.519e-6
0.197, 8.623e-6
0.198, 8.809e-6
0.199, 8.870e-6
0.200, 9.021e-6
0.201, 9.106e-6
0.202, 9.229e-6
0.203, 9.395e-6
0.204, 9.466e-6
0.205, 9.621e-6
0.206, 9.711e-6
0.207, 9.836e-6
0.208, 9.959e-6
0.209, 1.006e-5
0.210, 1.022e-5
0.211, 1.032e-5
0.212, 1.048e-5
0.213, 1.058e-5
0.214, 1.069e-5
0.215, 1.085e-5
0.216, 1.092e-5
0.217, 1.110e-5
0.218, 1.120e-5
0.219, 1.133e-5
0.220, 1.150e-5
0.221, 1.156e-5
0.222, 1.172e-5
0.223, 1.185e-5
0.224, 1.196e-5
0.225, 1.209e-5
0.226, 1.219e-5
0.227, 1.235e-5
0.228, 1.244e-5
0.229, 1.259e-5
0.230, 1.271e-5
0.231, 1.282e-5
0.232, 1.298e-5
0.233, 1.303e-5
0.234, 1.319e-5
0.235, 1.323e-5
0.236, 1.331e-5
0.237, 1.347e-5
0.238, 1.358e-5
0.239, 1.373e-5
0.240, 1.381e-5
0.241, 1.393e-5
0.242, 1.404e-5
0.243, 1.412e-5
0.244, 1.428e-5
0.245, 1.435e-5
0.246, 1.446e-5
0.247, 1.454e-5
0.248, 1.461e-5
0.249, 1.475e-5
0.250, 1.477e-5
0.251, 1.490e-5
0.252, 1.497e-5
0.253, 1.506e-5
0.254, 1.513e-5
0.255, 1.517e-5
0.256, 1.529e-5
0.257, 1.533e-5
0.258, 1.538e-5
0.259, 1.547e-5
0.260, 1.550e-5
0.261, 1.560e-5
0.262, 1.561e-5
0.263, 1.569e-5
0.264, 1.575e-5
0.265, 1.578e-5
0.266, 1.588e-5
0.267, 1.585e-5
0.268, 1.592e-5
0.269, 1.592e-5
0.270, 1.597e-5
0.271, 1.602e-5
0.272, 1.602e-5
0.273, 1.609e-5
0.274, 1.605e-5
0.275, 1.603e-5
0.276, 1.609e-5
0.277, 1.610e-5
0.278, 1.618e-5
0.279, 1.615e-5
0.280, 1.620e-5
0.281, 1.621e-5
0.282, 1.621e-5
0.283, 1.625e-5
0.284, 1.622e-5
0.285, 1.626e-5
0.286, 1.625e-5
0.287, 1.625e-5
0.288, 1.628e-5
0.289, 1.624e-5
0.290, 1.626e-5
0.291, 1.624e-5
0.292, 1.624e-5
0.293, 1.624e-5
0.294, 1.621e-5
0.295, 1.625e-5
0.296, 1.617e-5
0.297, 1.619e-5
0.298, 1.617e-5
0.299, 1.614e-5
0.300, 1.616e-5
0.301, 1.608e-5
0.302, 1.612e-5
0.303, 1.606e-5
0.304, 1.605e-5
0.305, 1.604e-5
0.306, 1.600e-5
0.307, 1.602e-5
0.308, 1.596e-5
0.309, 1.594e-5
0.310, 1.594e-5
0.311, 1.586e-5
0.312, 1.588e-5
0.313, 1.578e-5
0.314, 1.573e-5
0.315, 1.572e-5
0.316, 1.569e-5
0.317, 1.570e-5
0.318, 1.564e-5
0.319, 1.565e-5
0.320, 1.561e-5
0.321, 1.559e-5
0.322, 1.559e-5
0.323, 1.553e-5
0.324, 1.554e-5
0.325, 1.549e-5
0.326, 1.545e-5
0.327, 1.545e-5
0.328, 1.540e-5
0.329, 1.540e-5
0.330, 1.533e-5
0.331, 1.535e-5
0.332, 1.532e-5
0.333, 1.527e-5
0.334, 1.527e-5
0.335, 1.519e-5
0.336, 1.523e-5
0.337, 1.518e-5
0.338, 1.514e-5
0.339, 1.513e-5
0.340, 1.507e-5
0.341, 1.509e-5
0.342, 1.500e-5
0.343, 1.503e-5
0.344, 1.499e-5
0.345, 1.493e-5
0.346, 1.494e-5
0.347, 1.485e-5
0.348, 1.486e-5
0.349, 1.484e-5
0.350, 1.478e-5
0.351, 1.478e-5
0.352, 1.470e-5
0.353, 1.465e-5
0.354, 1.462e-5
0.355, 1.460e-5
0.356, 1.459e-5
0.357, 1.454e-5
0.358, 1.455e-5
0.359, 1.448e-5
0.360, 1.449e-5
0.361, 1.446e-5
0.362, 1.438e-5
0.363, 1.441e-5
0.364, 1.430e-5
0.365, 1.434e-5
0.366, 1.427e-5
0.367, 1.424e-5
0.368, 1.424e-5
0.369, 1.414e-5
0.370, 1.415e-5
0.371, 1.407e-5
0.372, 1.408e-5
0.373, 1.405e-5
0.374, 1.398e-5
0.375, 1.397e-5
0.376, 1.392e-5
0.377, 1.392e-5
0.378, 1.390e-5
0.379, 1.385e-5
0.380, 1.386e-5
0.381, 1.378e-5
0.382, 1.380e-5
0.383, 1.375e-5
0.384, 1.371e-5
0.385, 1.371e-5
0.386, 1.365e-5
0.387, 1.368e-5
0.388, 1.360e-5
0.389, 1.362e-5
0.390, 1.360e-5
0.391, 1.355e-5
0.392, 1.351e-5
0.393, 1.343e-5
0.394, 1.348e-5
0.395, 1.347e-5
0.396, 1.343e-5
0.397, 1.349e-5
0.398, 1.340e-5
0.399, 1.344e-5
0.400, 1.340e-5
0.401, 1.339e-5
0.402, 1.341e-5
0.403, 1.333e-5
0.404, 1.338e-5
0.405, 1.332e-5
0.406, 1.334e-5
0.407, 1.334e-5
0.408, 1.330e-5
0.409, 1.333e-5
0.410, 1.325e-5
0.411, 1.329e-5
0.412, 1.327e-5
0.413, 1.323e-5
0.414, 1.328e-5
0.415, 1.320e-5
0.416, 1.324e-5
0.417, 1.320e-5
0.418, 1.323e-5
0.419, 1.322e-5
0.420, 1.318e-5
0.421, 1.322e-5
0.422, 1.316e-5
0.423, 1.319e-5
0.424, 1.318e-5
0.425, 1.315e-5
0.426, 1.319e-5
0.427, 1.313e-5
0.428, 1.316e-5
0.429, 1.316e-5
0.430, 1.313e-5
0.431, 1.312e-5
0.432, 1.303e-5
0.433, 1.312e-5
0.434, 1.309e-5
0.435, 1.312e-5
0.436, 1.314e-5
0.437, 1.311e-5
0.438, 1.314e-5
0.439, 1.310e-5
0.440, 1.315e-5
0.441, 1.314e-5
0.442, 1.311e-5
0.443, 1.316e-5
0.444, 1.310e-5
0.445, 1.315e-5
0.446, 1.313e-5
0.447, 1.314e-5
0.448, 1.318e-5
0.449, 1.312e-5
0.450, 1.317e-5
0.451, 1.313e-5
0.452, 1.316e-5
0.453, 1.318e-5
0.454, 1.314e-5
0.455, 1.319e-5
0.456, 1.313e-5
0.457, 1.319e-5
0.458, 1.319e-5
0.459, 1.317e-5
0.460, 1.322e-5
0.461, 1.315e-5
0.462, 1.320e-5
0.463, 1.319e-5
0.464, 1.320e-5
0.465, 1.325e-5
0.466, 1.317e-5
0.467, 1.324e-5
0.468, 1.320e-5
0.469, 1.324e-5
0.470, 1.323e-5
0.471, 1.314e-5
0.472, 1.324e-5
0.473, 1.320e-5
0.474, 1.327e-5
0.475, 1.325e-5
0.476, 1.328e-5
0.477, 1.333e-5
0.478, 1.328e-5
0.479, 1.334e-5
0.480, 1.332e-5
0.481, 1.334e-5
0.482, 1.341e-5
0.483, 1.333e-5
0.484, 1.339e-5
0.485, 1.338e-5
0.486, 1.343e-5
0.487, 1.345e-5
0.488, 1.341e-5
0.489, 1.349e-5
0.490, 1.343e-5
0.491, 1.347e-5
0.492, 1.347e-5
0.493, 1.349e-5
0.494, 1.355e-5
0.495, 1.350e-5
0.496, 1.355e-5
0.497, 1.354e-5
0.498, 1.358e-5
0.499, 1.362e-5
0.500, 1.358e-5
0.501, 1.363e-5
0.502, 1.360e-5
0.503, 1.363e-5
0.504, 1.365e-5
0.505, 1.364e-5
0.506, 1.371e-5
0.507, 1.368e-5
0.508, 1.373e-5
0.509, 1.371e-5
0.510, 1.366e-5
0.511, 1.374e-5
0.512, 1.373e-5
0.513, 1.379e-5
0.514, 1.379e-5
0.515, 1.381e-5
0.516, 1.388e-5
0.517, 1.384e-5
0.518, 1.392e-5
0.519, 1.389e-5
0.520, 1.395e-5
0.521, 1.395e-5
0.522, 1.397e-5
0.523, 1.404e-5
0.524, 1.399e-5
0.525, 1.406e-5
0.526, 1.406e-5
0.527, 1.410e-5
0.528, 1.416e-5
0.529, 1.413e-5
0.530, 1.417e-5
0.531, 1.419e-5
0.532, 1.422e-5
0.533, 1.429e-5
0.534, 1.424e-5
0.535, 1.433e-5
0.536, 1.430e-5
0.537, 1.436e-5
0.538, 1.437e-5
0.539, 1.439e-5
0.540, 1.447e-5
0.541, 1.443e-5
0.542, 1.452e-5
0.543, 1.450e-5
0.544, 1.454e-5
0.545, 1.461e-5
0.546, 1.457e-5
0.547, 1.463e-5
0.548, 1.463e-5
0.549, 1.460e-5
0.550, 1.467e-5
0.551, 1.469e-5
0.552, 1.478e-5
0.553, 1.478e-5
0.554, 1.484e-5
0.555, 1.487e-5
0.556, 1.489e-5
0.557, 1.499e-5
0.558, 1.496e-5
0.559, 1.504e-5
0.560, 1.506e-5
0.561, 1.512e-5
0.562, 1.519e-5
0.563, 1.516e-5
0.564, 1.525e-5
0.565, 1.525e-5
0.566, 1.530e-5
0.567, 1.534e-5
0.568, 1.536e-5
0.569, 1.545e-5
0.570, 1.545e-5
0.571, 1.553e-5
0.572, 1.555e-5
0.573, 1.557e-5
0.574, 1.567e-5
0.575, 1.565e-5
0.576, 1.574e-5
0.577, 1.577e-5
0.578, 1.581e-5
0.579, 1.589e-5
0.580, 1.590e-5
0.581, 1.599e-5
0.582, 1.601e-5
0.583, 1.605e-5
0.584, 1.611e-5
0.585, 1.614e-5
0.586, 1.623e-5
0.587, 1.625e-5
0.588, 1.625e-5
0.589, 1.628e-5
0.590, 1.636e-5
0.591, 1.647e-5
0.592, 1.647e-5
0.593, 1.660e-5
0.594, 1.660e-5
0.595, 1.669e-5
0.596, 1.676e-5
0.597, 1.679e-5
0.598, 1.691e-5
0.599, 1.693e-5
0.600, 1.561e-5
0.599, 1.236e-5
0.598, 1.010e-5
0.597, 8.575e-6
0.596, 7.480e-6
0.595, 6.532e-6
0.594, 5.876e-6
0.593, 5.209e-6
0.592, 4.748e-6
0.591, 4.239e-6
0.590, 3.816e-6
0.589, 3.507e-6
0.588, 3.206e-6
0.587, 2.937e-6
0.586, 2.603e-6
0.585, 2.332e-6
0.584, 2.123e-6
0.583, 1.855e-6
0.582, 1.712e-6
0.581, 1.461e-6
0.580, 1.281e-6
0.579, 1.130e-6
0.578, 9.118e-7
0.577, 8.196e-7
0.576, 6.094e-7
0.575, 5.293e-7
0.574, 3.609e-7
0.573, 1.973e-7
0.572, 1.401e-7
0.571, -4.721e-8
0.570, -1.087e-7
0.569, -2.495e-7
0.568, -3.474e-7
0.567, -4.096e-7
0.566, -5.588e-7
0.565, -5.945e-7
0.564, -7.383e-7
0.563, -8.009e-7
0.562, -9.010e-7
0.561, -1.031e-6
0.560, -1.028e-6
0.559, -1.142e-6
0.558, -1.194e-6
0.557, -1.279e-6
0.556, -1.382e-6
0.555, -1.378e-6
0.554, -1.517e-6
0.553, -1.526e-6
0.552, -1.628e-6
0.551, -1.697e-6
0.550, -1.714e-6
0.549, -1.736e-6
0.548, -1.734e-6
0.547, -1.856e-6
0.546, -1.890e-6
0.545, -1.955e-6
0.544, -2.045e-6
0.543, -2.028e-6
0.542, -2.127e-6
0.541, -2.116e-6
0.540, -2.195e-6
0.539, -2.259e-6
0.538, -2.250e-6
0.537, -2.346e-6
0.536, -2.327e-6
0.535, -2.399e-6
0.534, -2.421e-6
0.533, -2.464e-6
0.532, -2.528e-6
0.531, -2.504e-6
0.530, -2.569e-6
0.529, -2.582e-6
0.528, -2.616e-6
0.527, -2.681e-6
0.526, -2.649e-6
0.525, -2.734e-6
0.524, -2.728e-6
0.523, -2.774e-6
0.522, -2.832e-6
0.521, -2.798e-6
0.520, -2.899e-6
0.519, -2.869e-6
0.518, -2.917e-6
0.517, -2.932e-6
0.516, -2.968e-6
0.515, -3.036e-6
0.514, -2.991e-6
0.513, -3.066e-6
0.512, -3.067e-6
0.511, -3.098e-6
0.510, -3.110e-6
0.509, -3.045e-6
0.508, -3.146e-6
0.507, -3.147e-6
0.506, -3.204e-6
0.505, -3.238e-6
0.504, -3.211e-6
0.503, -3.282e-6
0.502, -3.243e-6
0.501, -3.302e-6
0.500, -3.283e-6
0.499, -3.331e-6
0.498, -3.372e-6
0.497, -3.337e-6
0.496, -3.386e-6
0.495, -3.386e-6
0.494, -3.420e-6
0.493, -3.468e-6
0.492, -3.422e-6
0.491, -3.488e-6
0.490, -3.463e-6
0.489, -3.501e-6
0.488, -3.525e-6
0.487, -3.531e-6
0.486, -3.581e-6
0.485, -3.536e-6
0.484, -3.611e-6
0.483, -3.593e-6
0.482, -3.612e-6
0.481, -3.671e-6
0.480, -3.636e-6
0.479, -3.681e-6
0.478, -3.678e-6
0.477, -3.711e-6
0.476, -3.765e-6
0.475, -3.717e-6
0.474, -3.783e-6
0.473, -3.744e-6
0.472, -3.809e-6
0.471, -3.784e-6
0.470, -3.728e-6
0.469, -3.830e-6
0.468, -3.806e-6
0.467, -3.864e-6
0.466, -3.859e-6
0.465, -3.873e-6
0.464, -3.922e-6
0.463, -3.894e-6
0.462, -3.940e-6
0.461, -3.928e-6
0.460, -3.950e-6
0.459, -3.981e-6
0.458, -3.969e-6
0.457, -4.022e-6
0.456, -3.988e-6
0.455, -4.033e-6
0.454, -4.036e-6
0.453, -4.036e-6
0.452, -4.102e-6
0.451, -4.042e-6
0.450, -4.099e-6
0.449, -4.083e-6
0.448, -4.104e-6
0.447, -4.171e-6
0.446, -4.118e-6
0.445, -4.180e-6
0.444, -4.157e-6
0.443, -4.194e-6
0.442, -4.213e-6
0.441, -4.201e-6
0.440, -4.276e-6
0.439, -4.231e-6
0.438, -4.272e-6
0.437, -4.272e-6
0.436, -4.273e-6
0.435, -4.353e-6
0.434, -4.306e-6
0.433, -4.370e-6
0.432, -4.335e-6
0.431, -4.297e-6
0.430, -4.343e-6
0.429, -4.363e-6
0.428, -4.416e-6
0.427, -4.410e-6
0.426, -4.430e-6
0.425, -4.467e-6
0.424, -4.439e-6
0.423, -4.501e-6
0.422, -4.483e-6
0.421, -4.528e-6
0.420, -4.522e-6
0.419, -4.527e-6
0.418, -4.615e-6
0.417, -4.548e-6
0.416, -4.620e-6
0.415, -4.601e-6
0.414, -4.632e-6
0.413, -4.645e-6
0.412, -4.653e-6
0.411, -4.705e-6
0.410, -4.695e-6
0.409, -4.721e-6
0.408, -4.749e-6
0.407, -4.728e-6
0.406, -4.802e-6
0.405, -4.782e-6
0.404, -4.822e-6
0.403, -4.827e-6
0.402, -4.839e-6
0.401, -4.889e-6
0.400, -4.855e-6
0.399, -4.942e-6
0.398, -4.917e-6
0.397, -4.963e-6
0.396, -4.985e-6
0.395, -4.972e-6
0.394, -5.029e-6
0.393, -5.027e-6
0.392, -4.980e-6
0.391, -5.037e-6
0.390, -5.050e-6
0.389, -5.128e-6
0.388, -5.094e-6
0.387, -5.154e-6
0.386, -5.160e-6
0.385, -5.168e-6
0.384, -5.232e-6
0.383, -5.202e-6
0.382, -5.288e-6
0.381, -5.269e-6
0.380, -5.300e-6
0.379, -5.333e-6
0.378, -5.324e-6
0.377, -5.399e-6
0.376, -5.387e-6
0.375, -5.431e-6
0.374, -5.467e-6
0.373, -5.465e-6
0.372, -5.526e-6
0.371, -5.519e-6
0.370, -5.571e-6
0.369, -5.596e-6
0.368, -5.604e-6
0.367, -5.651e-6
0.366, -5.660e-6
0.365, -5.717e-6
0.364, -5.718e-6
0.363, -5.760e-6
0.362, -5.794e-6
0.361, -5.801e-6
0.360, -5.871e-6
0.359, -5.871e-6
0.358, -5.922e-6
0.357, -5.963e-6
0.356, -5.971e-6
0.355, -6.043e-6
0.354, -6.020e-6
0.353, -6.046e-6
0.352, -6.053e-6
0.351, -6.110e-6
0.350, -6.178e-6
0.349, -6.168e-6
0.348, -6.260e-6
0.347, -6.270e-6
0.346, -6.316e-6
0.345, -6.356e-6
0.344, -6.362e-6
0.343, -6.432e-6
0.342, -6.453e-6
0.341, -6.493e-6
0.340, -6.534e-6
0.339, -6.548e-6
0.338, -6.631e-6
0.337, -6.608e-6
0.336, -6.693e-6
0.335, -6.733e-6
0.334, -6.751e-6
0.333, -6.821e-6
0.332, -6.810e-6
0.331, -6.905e-6
0.330, -6.919e-6
0.329, -6.969e-6
0.328, -7.028e-6
0.327, -7.046e-6
0.326, -7.129e-6
0.325, -7.129e-6
0.324, -7.209e-6
0.323, -7.248e-6
0.322, -7.268e-6
0.321, -7.359e-6
0.320, -7.354e-6
0.319, -7.441e-6
0.318, -7.472e-6
0.317, -7.519e-6
0.316, -7.587e-6
0.315, -7.599e-6
0.314, -7.652e-6
0.313, -7.649e-6
0.312, -7.737e-6
0.311, -7.803e-6
0.310, -7.837e-6
0.309, -7.940e-6
0.308, -7.931e-6
0.307, -8.019e-6
0.306, -8.080e-6
0.305, -8.102e-6
0.304, -8.192e-6
0.303, -8.184e-6
0.302, -8.286e-6
0.301, -8.337e-6
0.300, -8.383e-6
0.299, -8.461e-6
0.298, -8.466e-6
0.297, -8.569e-6
0.296, -8.588e-6
0.295, -8.689e-6
0.294, -8.748e-6
0.293, -8.767e-6
0.292, -8.869e-6
0.291, -8.891e-6
0.290, -8.983e-6
0.289, -9.049e-6
0.288, -9.077e-6
0.287, -9.189e-6
0.286, -9.200e-6
0.285, -9.299e-6
0.284, -9.364e-6
0.283, -9.411e-6
0.282, -9.515e-6
0.281, -9.527e-6
0.280, -9.646e-6
0.279, -9.654e-6
0.278, -9.765e-6
0.277, -9.838e-6
0.276, -9.877e-6
0.275, -9.948e-6
0.274, -9.903e-6
0.273, -1.004e-5
0.272, -1.013e-5
0.271, -1.017e-5
0.270, -1.029e-5
0.269, -1.031e-5
0.268, -1.042e-5
0.267, -1.045e-5
0.266, -1.054e-5
0.265, -1.064e-5
0.264, -1.066e-5
0.263, -1.079e-5
0.262, -1.079e-5
0.261, -1.092e-5
0.260, -1.100e-5
0.259, -1.104e-5
0.258, -1.114e-5
0.257, -1.118e-5
0.256, -1.126e-5
0.255, -1.134e-5
0.254, -1.139e-5
0.253, -1.150e-5
0.252, -1.150e-5
0.251, -1.162e-5
0.250, -1.166e-5
0.249, -1.175e-5
0.248, -1.184e-5
0.247, -1.187e-5
0.246, -1.198e-5
0.245, -1.199e-5
0.244, -1.210e-5
0.243, -1.215e-5
0.242, -1.219e-5
0.241, -1.229e-5
0.240, -1.230e-5
0.239, -1.242e-5
0.238, -1.248e-5
0.237, -1.250e-5
0.236, -1.260e-5
0.235, -1.250e-5
0.234, -1.263e-5
0.233, -1.265e-5
0.232, -1.275e-5
0.231, -1.282e-5
0.230, -1.281e-5
0.229, -1.290e-5
0.228, -1.288e-5
0.227, -1.297e-5
0.226, -1.302e-5
0.225, -1.301e-5
0.224, -1.309e-5
0.223, -1.305e-5
0.222, -1.314e-5
0.221, -1.313e-5
0.220, -1.316e-5
0.219, -1.321e-5
0.218, -1.317e-5
0.217, -1.324e-5
0.216, -1.321e-5
0.215, -1.325e-5
0.214, -1.328e-5
0.213, -1.322e-5
0.212, -1.329e-5
0.211, -1.323e-5
0.210, -1.327e-5
0.209, -1.328e-5
0.208, -1.324e-5
0.207, -1.328e-5
0.206, -1.321e-5
0.205, -1.323e-5
0.204, -1.320e-5
0.203, -1.318e-5
0.202, -1.319e-5
0.201, -1.311e-5
0.200, -1.314e-5
0.199, -1.309e-5
0.198, -1.309e-5
0.197, -1.307e-5
0.196, -1.290e-5
0.195, -1.294e-5
0.194, -1.287e-5
0.193, -1.288e-5
0.192, -1.283e-5
0.191, -1.279e-5
0.190, -1.279e-5
0.189, -1.270e-5
0.188, -1.268e-5
0.187, -1.263e-5
0.186, -1.257e-5
0.185, -1.256e-5
0.184, -1.246e-5
0.183, -1.245e-5
0.182, -1.236e-5
0.181, -1.233e-5
0.180, -1.229e-5
0.179, -1.220e-5
0.178, -1.220e-5
0.177, -1.208e-5
0.176, -1.208e-5
0.175, -1.199e-5
0.174, -1.195e-5
0.173, -1.193e-5
0.172, -1.182e-5
0.171, -1.180e-5
0.170, -1.172e-5
0.169, -1.166e-5
0.168, -1.163e-5
0.167, -1.153e-5
0.166, -1.152e-5
0.165, -1.143e-5
0.164, -1.140e-5
0.163, -1.134e-5
0.162, -1.127e-5
0.161, -1.126e-5
0.160, -1.115e-5
0.159, -1.113e-5
0.158, -1.105e-5
0.157, -1.095e-5
0.156, -1.092e-5
0.155, -1.084e-5
0.154, -1.082e-5
0.153, -1.075e-5
0.152, -1.071e-5
0.151, -1.068e-5
0.150, -1.059e-5
0.149, -1.057e-5
0.148, -1.049e-5
0.147, -1.045e-5
0.146, -1.039e-5
0.145, -1.035e-5
0.144, -1.032e-5
0.143, -1.023e-5
0.142, -1.021e-5
0.141, -1.014e-5
0.140, -1.010e-5
0.139, -1.007e-5
0.138, -9.975e-6
0.137, -9.970e-6
0.136, -9.888e-6
0.135, -9.861e-6
0.134, -9.822e-6
0.133, -9.764e-6
0.132, -9.762e-6
0.131, -9.683e-6
0.130, -9.662e-6
0.129, -9.605e-6
0.128, -9.567e-6
0.127, -9.560e-6
0.126, -9.487e-6
0.125, -9.477e-6
0.124, -9.411e-6
0.123, -9.377e-6
0.122, -9.364e-6
0.121, -9.285e-6
0.120, -9.292e-6
0.119, -9.231e-6
0.118, -9.170e-6
0.117, -9.116e-6
0.116, -9.105e-6
0.115, -9.106e-6
0.114, -9.038e-6
0.113, -9.023e-6
0.112, -8.996e-6
0.111, -8.963e-6
0.110, -8.963e-6
0.109, -8.884e-6
0.108, -8.877e-6
0.107, -8.832e-6
0.106, -8.817e-6
0.105, -8.807e-6
0.104, -8.742e-6
0.103, -8.736e-6
0.102, -8.694e-6
0.101, -8.693e-6
0.100, -8.649e-6
0.099, -8.611e-6
0.098, -8.625e-6
0.097, -8.563e-6
0.096, -8.559e-6
0.095, -8.524e-6
0.094, -8.501e-6
0.093, -8.515e-6
0.092, -8.449e-6
0.091, -8.468e-6
0.090, -8.419e-6
0.089, -8.415e-6
0.088, -8.388e-6
0.087, -8.352e-6
0.086, -8.376e-6
0.085, -8.341e-6
0.084, -8.325e-6
0.083, -8.307e-6
0.082, -8.286e-6
0.081, -8.300e-6
0.080, -8.248e-6
0.079, -8.238e-6
0.078, -8.180e-6
0.077, -8.183e-6
0.076, -8.214e-6
0.075, -8.157e-6
0.074, -8.177e-6
0.073, -8.148e-6
0.072, -8.147e-6
0.071, -8.130e-6
0.070, -8.105e-6
0.069, -8.123e-6
0.068, -8.084e-6
0.067, -8.083e-6
0.066, -8.078e-6
0.065, -8.055e-6
0.064, -8.081e-6
0.063, -8.032e-6
0.062, -8.038e-6
0.061, -8.024e-6
0.060, -8.021e-6
0.059, -8.015e-6
0.058, -7.992e-6
0.057, -8.017e-6
0.056, -7.990e-6
0.055, -8.001e-6
0.054, -7.993e-6
0.053, -7.974e-6
0.052, -7.993e-6
0.051, -7.967e-6
0.050, -7.974e-6
0.049, -7.968e-6
0.048, -7.961e-6
0.047, -7.989e-6
0.046, -7.951e-6
0.045, -7.971e-6
0.044, -7.960e-6
0.043, -7.954e-6
0.042, -7.981e-6
0.041, -7.948e-6
0.040, -7.981e-6
0.039, -7.896e-6
0.038, -7.942e-6
0.037, -7.947e-6
0.036, -7.941e-6
0.035, -7.968e-6
0.034, -7.941e-6
0.033, -7.959e-6
0.032, -7.961e-6
0.031, -7.947e-6
0.030, -7.987e-6
0.029, -7.936e-6
0.028, -7.980e-6
0.027, -7.976e-6
0.026, -7.975e-6
0.025, -7.982e-6
0.024, -7.970e-6
0.023, -8.009e-6
0.022, -7.969e-6
0.021, -7.994e-6
0.020, -8.006e-6
0.019, -8.001e-6
0.018, -8.032e-6
0.017, -8.009e-6
0.016, -8.037e-6
0.015, -8.038e-6
0.014, -8.027e-6
0.013, -8.066e-6
0.012, -8.036e-6
0.011, -8.073e-6
0.010, -8.072e-6
0.009, -8.080e-6
0.008, -8.099e-6
0.007, -8.086e-6
0.006, -8.136e-6
0.005, -8.113e-6
0.004, -8.136e-6
0.003, -8.147e-6
0.002, -8.144e-6
0.001, -8.182e-6
